# Wilkinson Microwave Anisotropy Probe (WMAP) 9-year data release.
# WMAP 9-Year Combined Power Spectrum, version 5.0 (December 2012)
#
# References: - WMAP Explanatory Supplement: http://lambda.gsfc.nasa.gov/
#             - Bennett, et al. (2012)
#             - Hinshaw, et al. (2012)
#
# Column 1 = mean multipole moment l for the bin
# Column 2 = smallest l contributing to the bin
# Column 3 = largest l contributing to the bin
# Column 4 = mean value of TT power spectrum (=  l(l+1)/2pi * C_l) in the bin,
#            units = uK^2.  The mean is unweighted.
# Column 5 = 'Error' for binned value, as computed from diagonal terms of the
#            Fisher matrix, units = uK^2.
#            Included only as an estimate of their magnitude.  The
#            multipole moments are slightly coupled, so a correct
#            treatment of errors requires use of the entire Fisher matrix.
# Column 6 = portion of column 5 error attributed to measurement errors,
#            in "2SN + NN" form, units = uK^2.
# Column 7 = portion of column 5 error attributed to cosmic variance, 
#            assuming the best-fit LCDM 
   2.0     2     2       150.6398       708.3154         8.6102       708.2630
   3.0     3     3       902.1805       565.3141         9.6361       565.2320
   4.5     4     5      1099.1072       312.4955         7.3263       312.4096
   7.0     6     8       855.1115       196.0931         6.2631       195.9931
  10.0     9    11       832.0033       164.2599         6.4423       164.1336
  13.5    12    15       883.9303       127.8851         5.7894       127.7540
  17.5    16    19       835.6765       119.8922         6.0761       119.7382
  22.0    20    24       721.2550       103.8160         5.7750       103.6552
  27.5    25    30       981.0045        93.5466         5.7148        93.3718
  33.5    31    36      1095.1852        94.0505         6.2599        93.8420
  40.5    37    44      1418.5316        83.2131         6.0175        82.9952
  48.5    45    52      1322.0673        86.1606         6.7551        85.8954
  56.5    53    60      1524.0133        89.8703         7.5432        89.5532
  65.5    61    70      1790.3370        84.7945         7.6028        84.4530
  76.0    71    81      1950.1582        86.4829         8.2817        86.0855
  87.0    82    92      2338.4976        93.1665         9.4448        92.6865
  98.5    93   104      2615.6155        96.4660        10.2949        95.9151
 111.0   105   117      3162.6299       100.7411        11.2907       100.1064
 125.0   118   132      3492.3787       102.3140        12.0604       101.6007
 140.0   133   147      4190.8950       110.9557        13.7792       110.0968
 155.5   148   163      4530.3711       114.8607        15.0751       113.8671
 172.5   164   181      5009.8682       114.0958        15.9701       112.9726
 191.0   182   200      5465.1753       114.3175        17.2938       113.0019
 210.5   201   220      5699.9980       111.1218        18.4426       109.5807
 231.0   221   241      5750.4604       104.0859        19.3076       102.2795
 253.5   242   265      5374.3818        88.9232        18.9818        86.8736
 278.0   266   290      4881.9375        75.0042        19.0707        72.5392
 304.0   291   317      3916.0837        58.5645        18.3197        55.6254
 332.5   318   347      3035.2061        42.6047        16.9623        39.0825
 363.5   348   379      2252.7549        31.4036        16.0484        26.9932
 397.5   380   415      1772.8008        25.2336        15.7127        19.7445
 436.0   416   456      1825.3820        25.0856        17.2974        18.1682
 479.5   457   502      2297.0332        28.9113        20.9497        19.9243
 526.5   503   550      2519.3311        33.5649        25.9949        21.2336
 575.5   551   600      2457.5911        36.1274        30.6526        19.1208
 625.5   601   650      2010.2898        39.6298        36.4422        15.5721
 675.5   651   700      1730.6375        47.6679        45.6821        13.6153
 725.5   701   750      2007.7242        62.5138        60.7667        14.6761
 775.5   751   800      2367.9607        83.2958        81.5757        16.8402
 825.5   801   850      2624.6772       108.6466       107.2673        17.2571
 875.5   851   900      2145.3879       138.9998       138.2050        14.8434
 925.5   901   950      1847.1246       177.2919       176.9555        10.9162
 975.5   951  1000      1291.8231       228.2698       228.1366         7.7969
1050.5  1001  1100      1020.2952       247.0126       246.9625         4.9773
1150.5  1101  1200      1096.6265       442.3476       442.3174         5.1654
